        2.15000   483495.18916057    30640.26263830
        2.25000   400000.03601236    19706.58733749
        2.35000   322330.12610704    25017.66968290
        2.45000   328155.36934994    25242.72071923
        2.55000   275728.18016386    23138.59487506
        2.65000   269902.93692096    22892.86831845
        2.75000   244660.21620173    21796.06440955
        2.85000   256310.70268753    22308.98316010
        2.95000   190291.27926801    19222.32199587
        3.05000   165048.55854879    17902.02968415
        3.15000   165048.55854879    17902.02968415
        3.25000   122330.10810087    15412.14494717
        3.35000   135922.34233430    16245.82722057
        3.45000    97087.38738164    13730.22999705
        3.55000   100970.88287691    14002.14213621
        3.65000    85436.90089584    12880.09743283
        3.75000    87378.64864348    13025.63987659
        3.85000    56310.68468135    10456.63163488
        3.95000    81553.40540058    12583.96365413
        4.05000    83495.15314821    12732.89148480
        4.15000    75728.16215768    12126.21079736
        4.25000    64077.67567188    11154.49158005
        4.35000    64077.67567188    11154.49158005
        4.45000    46601.94594319     9512.58238180
        4.55000    54368.93693372    10274.76329811
        4.65000    50485.44143845     9901.00965565
        4.75000   102049.51971768     9911.92557621
        4.85000    81832.16203776     8875.94418757
        4.95000    91459.47521867     9383.54416674
        5.05000    74130.31149303     8447.93303088
        5.15000    81832.16203776     8875.94418757
        5.25000    77018.50544730     8610.93068528
        5.35000    82794.89335585     8928.00295764
        5.45000    55838.41644929     7331.94328049
        5.55000    64502.99831212     7880.29546311
        5.65000    59689.34172166     7580.55397921
        5.75000    71242.11753875     8281.72794299
        5.85000    59689.34172166     7580.55397921
        5.95000    53912.95381311     7204.42149563
        6.05000    55838.41644929     7331.94328049
        6.15000    49099.29722266     6875.27680407
        6.25000    58726.61040357     7519.17196511
        6.35000    39471.98404174     6164.48823701
        6.45000    37546.52140556     6012.25515448
        6.55000    40434.71535983     6239.21203479
        6.65000    38509.25272365     6088.84747989
        6.75000    37546.52140556     6012.25515448
        6.85000    38509.25272365     6088.84747989
        6.95000    35621.05876938     5856.06598843
        7.05000    34658.32745129     5776.38790855
        7.15000    26956.47690656     5094.29529409
        7.25000    28881.93954274     5273.09659735
        7.35000    42917.26306828     5204.48261156
        7.45000    51122.03394897     5680.22599433
        7.55000    41654.99062509     5127.37490277
        7.65000    56802.25994331     5987.48392219
        7.75000    65454.56976867     7823.31743992
        7.85000    67324.70033349     7934.29202453
        7.95000    55168.85166216     7182.37271796
        8.05000    43013.00299084     6341.92130107
        8.15000    37402.61129638     5913.87210673
        8.25000    44883.13355566     6478.32231011
        8.35000    51428.59053253     6934.62973274
        8.45000    46753.26412048     6611.91002044
        8.55000    38337.67657879     5987.33917338
        8.65000    39272.74186120     6059.91563138
        8.75000    51428.59053253     6934.62973274
        8.85000    41142.87242602     6202.52139248
        8.95000    39272.74186120     6059.91563138
        9.05000    42077.93770843     6272.60860460
        9.15000    25246.76262506     4858.74173258
        9.25000    39272.74186120     6059.91563138
        9.35000    33662.35016674     5610.39169446
        9.45000    33662.35016674     5610.39169446
        9.55000    19636.37093060     4285.00743637
        9.65000    34597.41544915     5687.78006322
        9.75000    30857.15431952     5371.54109340
        9.85000    23376.63206024     4675.32641205
        9.95000    31792.21960192     5452.32068027
       10.05000    26181.82790747     4947.90039373
       10.15000    34342.69727918     4630.76835645
       10.25000    38089.17334600     4876.81891445
       10.35000    39962.41137941     4995.30142243
       10.45000    36185.03889636     5794.24347384
       10.55000    47318.89701832     6625.97090929
       10.65000    43607.61097766     6360.82380450
       10.75000    35257.21738620     5719.47590951
       10.85000    48246.71852848     6690.61605874
       10.95000    44535.43248783     6428.13598383
       11.05000    52885.82607930     7004.89878721
       11.15000    38968.50342685     6012.97062177
       11.25000    38968.50342685     6012.97062177
       11.35000    25051.18077440     4821.10198787
       11.45000    33401.57436587     5566.92906098
       11.55000    35257.21738620     5719.47590951
       11.65000    28762.46681506     5165.89153935
       11.75000    18556.43020326     4149.34393542
       11.85000    37112.86040652     5868.05846842
       11.95000    28762.46681506     5165.89153935
       12.05000    31545.93134554     5410.08259276
       12.15000    31545.93134554     5410.08259276
       12.25000    38040.68191669     5940.95639974
       12.35000    26906.82379473     4996.47174383
       12.45000    23195.53775408     4639.10755082
       12.55000    33401.57436587     5566.92906098
       12.65000    18556.43020326     4149.34393542
       12.75000    24123.35926424     4730.97998545
       12.85000    31537.56864007     4416.14292654
       12.95000    27827.26644712     4148.24396025
       13.05000    28934.47333430     5196.78482219
       13.15000    48535.24559302     6730.62756357
       13.25000    45735.13527035     6533.59075291
       13.35000    40134.91462500     6120.51710073
       13.45000    34534.69397965     5677.46871716
       13.55000    40134.91462500     6120.51710073
       13.65000    31734.58365698     5442.43619726
       13.75000    43868.39505523     6398.86307176
       13.85000    36401.43419477     5828.89445347
       13.95000    37334.80430233     5903.15087960
       14.05000    18667.40215116     4174.15801733
       14.15000    35468.06408721     5753.67976098
       14.25000    33601.32387209     5600.22064535
       14.35000    38268.17440988     5976.48475820
       14.45000    35468.06408721     5753.67976098
       14.55000    36401.43419477     5828.89445347
       14.65000    27067.73311919     5026.35185525
       14.75000    25200.99290407     4849.93334567
       14.85000    17734.03204361     4068.46597577
       14.95000    28001.10322674     5112.27862411
       15.05000    28001.10322674     5112.27862411
       15.15000    25200.99290407     4849.93334567
       15.25000    21467.51247384     4476.28578475
       15.35000    31734.58365698     5442.43619726
       15.45000    20534.14236628     4377.89386224
       15.55000    35361.64471927     4768.16320124
       15.65000    31504.01074989     4500.57296427
       15.75000    34718.70572437     4724.61741970
       15.85000    39089.35075090     6180.56903150
       15.95000    32248.71436949     5613.78060503
       16.05000    33225.94813826     5698.20309573
       16.15000    31271.48060072     5528.06899763
       16.25000    27362.54552563     5171.03504989
       16.35000    27362.54552563     5171.03504989
       16.45000    23453.61045054     4787.44818582
       16.55000    28339.77929440     5262.56489994
       16.65000    36157.64944458     5944.28095203
       16.75000    33225.94813826     5698.20309573
       16.85000    35180.41567581     5863.40261263
       16.95000    31271.48060072     5528.06899763
       17.05000    21499.14291299     4583.63267008
       17.15000    29317.01306317     5352.52979112
       17.25000    32248.71436949     5613.78060503
       17.35000    27362.54552563     5171.03504989
       17.45000    29317.01306317     5352.52979112
       17.55000    20521.90914422     4478.24771707
       17.65000    24430.84421931     4886.16884386
       17.75000    27362.54552563     5171.03504989
       17.85000    12704.03899404     3523.46646142
       17.95000    26385.31175686     5077.85561516
       18.05000    28339.77929440     5262.56489994
       18.15000    37134.88321335     6024.07352840
       18.25000    32936.50067989     4657.92459586
       18.35000    28325.39058470     4319.58156828
       18.45000    29642.85061190     4418.89526767
       18.55000    27586.28644336     5308.98330134
       18.65000    29629.71506880     5502.09995979
       18.75000    26564.57213065     5209.74121786
       18.85000    49042.28701042     7078.64440179
       18.95000    33716.57231967     5869.30187627
       19.05000    25542.85781793     5108.57156359
       19.15000    22477.71487978     4792.26491441
       19.25000    30651.42938152     5596.15976401
       19.35000    26564.57213065     5209.74121786
       19.45000    28608.00075608     5406.40396481
       19.55000    26564.57213065     5209.74121786
       19.65000    31673.14369423     5688.66453934
       19.75000    25542.85781793     5108.57156359
       19.85000    20434.28625434     4569.24531364
       19.95000    31673.14369423     5688.66453934
       20.05000    27586.28644336     5308.98330134
       20.15000    33716.57231967     5869.30187627
       20.25000    23499.42919249     4899.96970875
       20.35000    25542.85781793     5108.57156359
       20.45000    20434.28625434     4569.24531364
       20.55000    31673.14369423     5688.66453934
       20.65000    19412.57194163     4453.54943830
       20.75000    20434.28625434     4569.24531364
       20.85000    17369.14331619     4212.63603054
       20.95000    23724.59008453     4068.73363258
       21.05000    26515.71832976     4301.41750976
       21.15000    21631.24390060     3885.08609398
       21.25000    29500.35687354     5575.04341965
       21.35000    32661.10939570     5866.10841754
       21.45000    28446.77269948     5474.58395854
       21.55000    24232.43600326     5052.81219440
       21.65000    18964.51513299     4469.97908415
       21.75000    35821.86191786     6143.39863608
       21.85000    26339.60435137     5267.92087027
       21.95000    32661.10939570     5866.10841754
       22.05000    28446.77269948     5474.58395854
       22.15000    29500.35687354     5575.04341965
       22.25000    23178.85182921     4941.74781429
       22.35000    23178.85182921     4941.74781429
       22.45000    34768.27774381     6052.38029126
       22.55000    20018.09930704     4592.46694322
       22.65000    28446.77269948     5474.58395854
       22.75000    26339.60435137     5267.92087027
       22.85000    23178.85182921     4941.74781429
       22.95000    27393.18852543     5372.24626272
       23.05000    22125.26765515     4828.12922861
       23.15000    34768.27774381     6052.38029126
       23.25000    23178.85182921     4941.74781429
       23.35000    21071.68348110     4711.77166641
       23.45000    27393.18852543     5372.24626272
       23.55000    25286.02017732     5161.48725501
       23.65000    19761.97823393     3669.70723120
       23.75000    16354.74060739     3338.39744697
       23.85000    25213.55843639     4145.08347331
       23.95000    21589.64766482     4711.24736436
       24.05000    27758.11842620     5342.05238185
       24.15000    28786.19688643     5440.07986806
       24.25000    14393.09844322     3846.71736490
       24.35000    19533.49074436     4481.29011417
       24.45000    28786.19688643     5440.07986806
       24.55000    20561.56920459     4597.70664655
       24.65000    24673.88304551     5036.53528622
       24.75000    18505.41228413     4361.76750492
       24.85000    21589.64766482     4711.24736436
       24.95000    19533.49074436     4481.29011417
       25.05000    31870.43226712     5724.09861306
       25.15000    24673.88304551     5036.53528622
       25.25000    12336.94152276     3561.36825457
       25.35000    20561.56920459     4597.70664655
       25.45000    18505.41228413     4361.76750492
       25.55000    15421.17690345     3981.73075506
       25.65000    20561.56920459     4597.70664655
       25.75000    22617.72612505     4822.11541220
       25.85000    11308.86306253     3409.75050763
       25.95000    16449.25536367     4112.31384092
       26.05000    13365.01998299     3706.78960356
       26.15000    23645.80458528     4930.49108801
       26.25000    22617.72612505     4822.11541220
       26.35000    15956.11230389     3257.02778526
       26.45000    21274.81640519     3760.89173715
       26.55000    31247.38659512     4557.89978003
       26.65000    32388.33245763     5554.55319161
       26.75000    51440.29272682     7000.13718889
       26.85000    40961.71457876     6246.60291163
       26.95000    41914.31259222     6318.82037337
       27.05000    34293.52848455     5715.58808076
       27.15000    28577.94040379     5217.59420206
       27.25000    21909.75430957     4568.49958199
       27.35000    20957.15629611     4468.08073511
       27.45000    20004.55828265     4365.35250354
       27.55000    16194.16622881     3927.66222825
       27.65000    18099.36225573     4152.27847449
       27.75000    14288.97020189     3689.39624176
       27.85000    17146.76424227     4041.53109037
       27.95000    16194.16622881     3927.66222825
       28.05000    20957.15629611     4468.08073511
       28.15000    20957.15629611     4468.08073511
       28.25000    14288.97020189     3689.39624176
       28.35000    13336.37218843     3564.29539369
       28.45000    16194.16622881     3927.66222825
       28.55000    23814.95033649     4762.99006730
       28.65000    15241.56821535     3810.39205384
       28.75000    18099.36225573     4152.27847449
       28.85000    19051.96026919     4260.14782665
       28.95000    11431.17616152     3299.89631700
       29.05000    15410.37232764     3145.62907909
       29.15000    12199.87809272     2798.84398577
       29.25000    23757.65733845     3905.73480719
       29.35000    19247.99530174     4303.98259253
       29.45000     6736.79835561     2546.27044025
       29.55000    15398.39624139     3849.59906035
       29.65000    11548.79718105     3333.85058065
       29.75000    21172.79483192     4514.05502541
       29.85000    18285.59553665     4195.00331930
       29.95000    12511.19694613     3469.98170052
       30.05000    21172.79483192     4514.05502541
       30.15000    12511.19694613     3469.98170052
       30.25000    20210.39506683     4410.26977232
       30.35000    24059.99412718     4811.99882544
       30.45000    16360.79600648     3968.07588552
       30.55000    20210.39506683     4410.26977232
       30.65000    14435.99647631     3727.35826258
       30.75000    18285.59553665     4195.00331930
       30.85000    18285.59553665     4195.00331930
       30.95000    20210.39506683     4410.26977232
       31.05000    20210.39506683     4410.26977232
       31.15000    18285.59553665     4195.00331930
       31.25000    15398.39624139     3849.59906035
       31.35000    16360.79600648     3968.07588552
       31.45000    13473.59671122     3600.97019007
       31.55000    15398.39624139     3849.59906035
       31.65000    14435.99647631     3727.35826258
       31.75000    19081.24145835     3483.74212398
       31.85000    17809.15869446     3365.61464034
       31.95000    14628.95178474     3050.34730966
       32.05000    11529.73259411     3328.34710845
       32.15000    14412.16574264     3721.20519360
       32.25000    23059.46518823     4706.99362105
       32.35000    22098.65413872     4607.88791919
       32.45000    14412.16574264     3721.20519360
       32.55000    14412.16574264     3721.20519360
       32.65000    15372.97679215     3843.24419804
       32.75000    24020.27623774     4804.05524755
       32.85000    19216.22099019     4296.87764047
       32.95000    14412.16574264     3721.20519360
       33.05000    11529.73259411     3328.34710845
       33.15000    12490.54364362     3464.25350504
       33.25000    15372.97679215     3843.24419804
       33.35000    14412.16574264     3721.20519360
       33.45000    10568.92154461     3186.64974565
       33.55000    16333.78784166     3961.52544339
       33.65000    18255.40994068     4188.07826865
       33.75000    13451.35469313     3595.02576069
       33.85000     8647.29944559     2882.43314853
       33.95000    21137.84308921     4506.60328883
       34.05000    17294.59889117     4076.37605128
       34.15000    14412.16574264     3721.20519360
       34.25000    24020.27623774     4804.05524755
       34.35000    13451.35469313     3595.02576069
       34.45000    16022.59251826     3204.51850365
       34.55000    15381.68881753     3139.77408210
       34.65000    17304.39991972     3330.23331727
       34.75000    29449.06656488     5289.20849479
       34.85000    22799.27734055     4653.88299905
       34.95000    16149.48811622     3916.82619429
       35.05000    17099.45800541     4030.38090341
       35.15000    17099.45800541     4030.38090341
       35.25000    18049.42789460     4140.82274638
       35.35000    19949.36767298     4353.30892514
       35.45000    17099.45800541     4030.38090341
       35.55000    18999.39778379     4248.39449761
       35.65000    11399.63867028     3290.79222747
       35.75000    16149.48811622     3916.82619429
       35.85000    17099.45800541     4030.38090341
       35.95000    15199.51822703     3799.87955676
       36.05000    17099.45800541     4030.38090341
       36.15000    13299.57844866     3554.46185310
       36.25000    17099.45800541     4030.38090341
       36.35000    16149.48811622     3916.82619429
       36.45000    18049.42789460     4140.82274638
       36.55000    10449.66878109     3150.69368458
       36.65000    19949.36767298     4353.30892514
       36.75000    17099.45800541     4030.38090341
       36.85000    16149.48811622     3916.82619429
       36.95000    13299.57844866     3554.46185310
       37.05000    22330.65262366     3887.26766469
       37.15000    16240.47463539     3315.07300311
       37.25000    10826.98309026     2706.74577256
       37.35000    19623.90685109     3644.06801907
       37.45000    12703.33508539     3667.13696558
       37.55000    15879.16885673     4099.98376892
       37.65000    13761.94634250     3816.87716831
       37.75000     9527.50131404     3175.83377135
       37.85000    16937.78011385     4234.44502846
       37.95000    15879.16885673     4099.98376892
       38.05000    16937.78011385     4234.44502846
       38.15000    29641.11519923     5601.64424284
       38.25000    17996.39137096     4364.76602956
       38.35000    23289.44765654     4965.32692390
       38.45000    28582.50394212     5500.70544837
       38.55000    24348.05891366     5076.92123781
       38.65000    32816.94897058     5894.09803146
       38.75000    21172.22514231     4734.25346531
       38.85000    15879.16885673     4099.98376892
       38.95000    23289.44765654     4965.32692390
       39.05000    19055.00262808     4491.30719128
       39.15000    16937.78011385     4234.44502846
       39.25000    11644.72382827     3511.01633870
       39.35000    10586.11257115     3347.62272918
       39.45000    16937.78011385     4234.44502846
       39.55000    20113.61388519     4614.37949026
       39.65000    13761.94634250     3816.87716831
       39.75000    15879.16885673     4099.98376892
       39.85000    19217.58424590     3631.78205101
       39.95000     9608.79212295     2568.05771606
       40.05000    18531.24195141     3566.33917635
       40.15000    16000.17919167     4131.22850305
       40.25000    26666.96531946     5333.39306389
       40.35000    12800.14335334     3695.08310536
       40.45000    11733.46474056     3537.77273048
       40.55000    19200.21503001     4525.53408265
       40.65000    20266.89364279     4649.54427834
       40.75000    13866.82196612     3845.96443281
       40.85000    19200.21503001     4525.53408265
       40.95000    23466.92948112     5003.16617604
       41.05000    17066.85780445     4266.71445111
       41.15000    17066.85780445     4266.71445111
       41.25000    17066.85780445     4266.71445111
       41.35000    17066.85780445     4266.71445111
       41.45000    21333.57225557     4770.33177663
       41.55000    17066.85780445     4266.71445111
       41.65000    18133.53641723     4398.02858907
       41.75000    16000.17919167     4131.22850305
       41.85000    29867.00115779     5644.33267649
       41.95000    19200.21503001     4525.53408265
       42.05000    12800.14335334     3695.08310536
       42.15000    21333.57225557     4770.33177663
       42.25000    19200.21503001     4525.53408265
       42.35000     7466.75028945     2822.16633824
       42.45000    14767.76963619     3222.59153350
       42.55000    14064.54251066     3144.92731263
       42.65000    14064.54251066     3144.92731263
       42.75000    13040.53908376     3616.79479432
       42.85000    14043.65747482     3753.32533771
       42.95000    16049.89425693     4012.47356423
       43.05000    17053.01264799     4135.96308133
       43.15000    23071.72299434     4810.78680145
       43.25000    19059.24943011     4372.49169503
       43.35000    18056.13103905     4255.87089990
       43.45000     7021.82873741     2654.00179830
       43.55000    18056.13103905     4255.87089990
       43.65000    14043.65747482     3753.32533771
       43.75000    15046.77586587     3885.06082284
       43.85000    12037.42069270     3474.90403864
       43.95000    14043.65747482     3753.32533771
       44.05000     9028.06551952     3009.35517317
       44.15000     8024.94712847     2837.24726660
       44.25000    16049.89425693     4012.47356423
       44.35000    17053.01264799     4135.96308133
       44.45000    16049.89425693     4012.47356423
       44.55000    21065.48621222     4596.86595803
       44.65000    16049.89425693     4012.47356423
       44.75000    16049.89425693     4012.47356423
       44.85000    21065.48621222     4596.86595803
       44.95000    24074.84138540     4914.25641939
       45.05000    20062.36782117     4486.08182377
       45.15000    25077.95977646     5015.59195529
       45.25000    15872.89798304     3240.04173314
       45.35000    21163.86397738     3741.27793363
       45.45000    21825.23472667     3799.28570190
       45.55000    11003.89419675     3317.79893485
       45.65000    12004.24821463     3465.32796907
       45.75000    17006.01830406     4124.56527875
       45.85000    16005.66428618     4001.41607154
       45.95000    18006.37232195     4244.14265781
       46.05000    11003.89419675     3317.79893485
       46.15000    14004.95625040     3742.98200041
       46.25000    15005.31026829     3874.35445158
       46.35000    22007.78839349     4692.07625089
       46.45000    13004.60223252     3606.82770510
       46.55000    12004.24821463     3465.32796907
       46.65000    16005.66428618     4001.41607154
       46.75000    12004.24821463     3465.32796907
       46.85000    12004.24821463     3465.32796907
       46.95000    12004.24821463     3465.32796907
       47.05000    21007.43437560     4584.19800872
       47.15000    19006.72633983     4360.44207173
       47.25000    12004.24821463     3465.32796907
       47.35000    17006.01830406     4124.56527875
       47.45000    15005.31026829     3874.35445158
       47.55000    11003.89419675     3317.79893485
       47.65000     6002.12410732     2450.35690596
       47.75000    15005.31026829     3874.35445158
       47.85000    18006.37232195     4244.14265781
       47.95000    15681.92314195     3269.90701523
       48.05000    25227.44157617     4147.36584743
       48.15000    18327.50015736     4319.83321449
       48.25000    18327.50015736     4319.83321449
       48.35000    13236.52789143     3671.15230936
       48.45000    11200.13898506     3376.96896484
       48.55000     7127.36117231     2693.88930944
       48.65000     9163.75007868     3054.58335956
       48.75000    13236.52789143     3671.15230936
       48.85000    22400.27797011     4775.75530979
       48.95000    24436.66687649     4988.11373848
       49.05000    18327.50015736     4319.83321449
       49.15000    14254.72234462     3809.73479694
       49.25000    13236.52789143     3671.15230936
       49.35000    15272.91679780     3943.45016039
       49.45000    17309.30570418     4198.12327791
       49.55000    14254.72234462     3809.73479694
       49.65000    11200.13898506     3376.96896484
       49.75000    20363.88906374     4553.50402328
       49.85000    33600.41695517     5849.08182269
       49.95000    14254.72234462     3809.73479694
       50.05000    16291.11125099     4072.77781275
       50.15000    18327.50015736     4319.83321449
       50.25000     9163.75007868     3054.58335956
       50.35000    23418.47242330     4883.08905546
       50.45000    13236.52789143     3671.15230936
       50.55000    15272.91679780     3943.45016039
       50.65000    15655.88351974     3264.47737866
       50.75000    12933.12116848     2967.06148410
       50.85000    14975.19293193     3192.72186065
       50.95000    11530.68431767     3476.63213252
       51.05000    14675.41640431     3922.17001380
       51.15000    14675.41640431     3922.17001380
       51.25000    11530.68431767     3476.63213252
       51.35000    27254.34475086     5345.01675826
       51.45000    17820.14849095     4322.02085249
       51.55000    11530.68431767     3476.63213252
       51.65000    11530.68431767     3476.63213252
       51.75000    16771.90446207     4192.97611552
       51.85000    12578.92834655     3631.22383350
       51.95000    11530.68431767     3476.63213252
       52.05000    17820.14849095     4322.02085249
       52.15000    14675.41640431     3922.17001380
       52.25000    18868.39251983     4447.32276695
       52.35000     8385.95223103     2964.88184464
       52.45000    20964.88057758     4687.88981116
       52.55000    11530.68431767     3476.63213252
       52.65000    14675.41640431     3922.17001380
       52.75000    11530.68431767     3476.63213252
       52.85000    20964.88057758     4687.88981116
       52.95000    15723.66043319     4059.83166661
       53.05000    13627.17237543     3779.49759532
       53.15000    16771.90446207     4192.97611552
       53.25000    23061.36863534     4916.70031320
       53.35000    20401.55233603     3788.47316038
       53.45000    27436.57038294     4393.36736216
       53.55000    45727.61730490     5671.81287581
       53.65000    72292.96488045     8703.05024923
       53.75000    66006.62010824     8316.05246144
       53.85000    41908.96514809     6626.38921243
       53.95000    24097.65496015     5024.70840417
       54.05000    13620.41367313     3777.62306858
       54.15000     7334.06890092     2772.01748715
       54.25000    13620.41367313     3777.62306858
       54.35000    15715.86193053     4057.81810188
       54.45000    10477.24128702     3313.19460621
       54.55000    18859.03431664     4445.11701731
       54.65000    16763.58605924     4190.89651481
       54.75000    13620.41367313     3777.62306858
       54.85000    10477.24128702     3313.19460621
       54.95000    11524.96541572     3474.90781871
       55.05000    13620.41367313     3777.62306858
       55.15000    18859.03431664     4445.11701731
       55.25000    19906.75844534     4566.92359772
       55.35000    16763.58605924     4190.89651481
       55.45000    18859.03431664     4445.11701731
       55.55000    15715.86193053     4057.81810188
       55.65000    22002.20670275     4801.27512721
       55.75000    10477.24128702     3313.19460621
       55.85000     8381.79302962     2963.41134487
       55.95000     8381.79302962     2963.41134487
       56.05000    15208.43286011     3242.44878042
       56.15000    11751.97084645     2850.27159465
       56.25000    13825.84805464     3091.55360968
       56.35000     9378.90513591     3126.30171197
       56.45000    13547.30741854     3757.34704169
       56.55000     9378.90513591     3126.30171197
       56.65000    10421.00570657     3295.41135424
       56.75000    12505.20684788     3609.94226995
       56.85000    17715.70970116     4296.69072533
       56.95000    12505.20684788     3609.94226995
       57.05000    11463.10627722     3456.25658668
       57.15000    17715.70970116     4296.69072533
       57.25000    11463.10627722     3456.25658668
       57.35000    15631.50855985     4036.03815523
       57.45000    16673.60913051     4168.40228263
       57.55000    11463.10627722     3456.25658668
       57.65000    11463.10627722     3456.25658668
       57.75000    15631.50855985     4036.03815523
       57.85000     9378.90513591     3126.30171197
       57.95000    15631.50855985     4036.03815523
       58.05000    15631.50855985     4036.03815523
       58.15000    12505.20684788     3609.94226995
       58.25000    21884.11198379     4775.50474679
       58.35000    14589.40798919     3899.18329796
       58.45000    25010.41369576     5105.22931754
       58.55000    11463.10627722     3456.25658668
       58.65000    19799.91084247     4542.41107650
       58.75000    20926.78019585     3758.56067752
       58.85000    23627.00989854     3993.69358845
       58.95000    14851.26336480     3166.29998816
       59.05000    17753.73209660     4184.59478563
       59.15000    11835.82139774     3416.70733503
       59.25000    17753.73209660     4184.59478563
       59.35000    15781.09519698     3945.27379925
       59.45000    11835.82139774     3416.70733503
       59.55000    15781.09519698     3945.27379925
       59.65000    12822.13984755     3556.22174473
       59.75000    17753.73209660     4184.59478563
       59.85000     9863.18449811     3119.01279965
       59.95000    14794.77674717     3819.99493018
       60.05000    10849.50294793     3271.24822183
       60.15000    10849.50294793     3271.24822183
       60.25000     7890.54759849     2789.72985708
       60.35000    12822.13984755     3556.22174473
       60.45000    13808.45829736     3690.46571345
       60.55000     8876.86604830     2958.95534943
       60.65000    12822.13984755     3556.22174473
       60.75000    25644.27969510     5029.25702220
       60.85000    17753.73209660     4184.59478563
       60.95000    20712.68744604     4519.87895559
       61.05000    22685.32434566     4730.21711363
       61.15000    29589.55349434     5402.28863845
       61.25000    25644.27969510     5029.25702220
       61.35000    78707.00734961     7245.56732168
       61.45000    78039.99881275     7214.80044247
       61.55000    80041.02442333     7306.71243375
       61.65000    78707.00734961     7245.56732168
       61.75000   129081.58077278    11321.20355616
       61.85000   278021.86627984    16614.98442991
       61.95000   439870.30986418    20898.86911410
       62.05000   642429.09815378    25256.49398961
       62.15000   599732.88297509    24402.78492553
       62.25000   468665.43172888    21572.07503680
       62.35000   245255.00346829    15605.20217504
       62.45000   129081.58077278    11321.20355616
       62.55000    48653.82659897     6950.54665700
       62.65000    28795.12186470     5347.11989251
       62.75000    19858.70473427     4440.54137309
       62.85000    18865.76949756     4328.10435432
       62.95000    20851.63997099     4550.20088243
       63.05000    29788.05710141     5438.53027290
       63.15000    18865.76949756     4328.10435432
       63.25000    16879.89902413     4093.97686037
       63.35000    15886.96378742     3971.74094685
       63.45000    26809.25139127     5159.44283584
       63.55000    22837.51044442     4761.95010884
       63.65000    20851.63997099     4550.20088243
       63.75000    12908.15807728     3580.07890919
       63.85000    13901.09331399     3715.22346304
       63.95000     6950.54665700     2627.05970434
       64.05000    22077.99359454     3843.28537314
       64.15000    12711.57206959     2916.23463499
       64.25000    15387.69250529     3208.55568643
       64.35000    11373.51185173     2758.48180582
       64.45000    18500.51542109     4360.61330323
       64.55000    17472.70900881     4237.75440053
       64.65000    15417.09618424     3980.67711790
       64.75000    17472.70900881     4237.75440053
       64.85000    19528.32183337     4480.10428466
       64.95000    31861.99878077     5722.58391420
       65.05000    19528.32183337     4480.10428466
       65.15000    21583.93465794     4710.00068405
       65.25000    15417.09618424     3980.67711790
       65.35000    11305.87053511     3408.84822666
       65.45000     6166.83847370     2517.60126445
       65.55000     7194.64488598     2719.32016282
       65.65000    10278.06412283     3250.20925654
       65.75000    15417.09618424     3980.67711790
       65.85000     8222.45129826     2907.07553549
       65.95000    10278.06412283     3250.20925654
       66.05000     9250.25771055     3083.41923685
       66.15000    13361.48335968     3705.80872074
       66.25000     8222.45129826     2907.07553549
       66.35000    13361.48335968     3705.80872074
       66.45000    18500.51542109     4360.61330323
       66.55000    14389.28977196     3845.69945469
       66.65000    10278.06412283     3250.20925654
       66.75000    13215.77662835     3031.90709386
       66.85000    13215.77662835     3031.90709386
       66.95000     9737.94067352     2602.57411807
       67.05000     6300.43117165     2572.14025501
       67.15000    12600.86234330     3637.55563296
       67.25000    12600.86234330     3637.55563296
       67.35000     6300.43117165     2572.14025501
       67.45000     8400.57489554     2970.05173725
       67.55000    11550.79048136     3482.69436897
       67.65000     8400.57489554     2970.05173725
       67.75000    15751.07792913     4066.91083362
       67.85000    16801.14979107     4200.28744777
       67.95000    19951.36537690     4577.15712966
       68.05000    12600.86234330     3637.55563296
       68.15000    17851.22165301     4329.55720128
       68.25000    16801.14979107     4200.28744777
       68.35000     6300.43117165     2572.14025501
       68.45000     7350.50303359     2778.22900544
       68.55000    12600.86234330     3637.55563296
       68.65000     6300.43117165     2572.14025501
       68.75000    11550.79048136     3482.69436897
       68.85000     6300.43117165     2572.14025501
       68.95000    10500.71861942     3320.61879059
       69.05000    11550.79048136     3482.69436897
       69.15000    12600.86234330     3637.55563296
       69.25000    13650.93420524     3786.08794115
       69.35000    11550.79048136     3482.69436897
       69.45000    20239.85646345     3824.97334099
       69.55000    21685.56049655     3959.22355203
       69.65000    23131.26452966     4089.06850158
       69.75000    14511.79515411     4024.84780978
       69.85000    11162.91934932     3530.02504806
       69.95000    13395.50321918     3866.94869476
       70.05000    13395.50321918     3866.94869476
       70.15000    14511.79515411     4024.84780978
       70.25000    22325.83869863     4992.20929848
       70.35000    12279.21128425     3702.32150467
       70.45000    20093.25482877     4736.02558184
       70.55000    12279.21128425     3702.32150467
       70.65000     7814.04354452     2953.43085038
       70.75000    11162.91934932     3530.02504806
       70.85000    16744.37902398     4323.38007350
       70.95000     7814.04354452     2953.43085038
       71.05000    11162.91934932     3530.02504806
       71.15000    14511.79515411     4024.84780978
       71.25000    10046.62741439     3348.87580480
       71.35000     8930.33547945     3157.35038790
       71.45000     6697.75160959     2734.34564457
       71.55000    15628.08708904     4176.78196413
       71.65000    16744.37902398     4323.38007350
       71.75000    21209.54676370     4865.80373586
       71.85000    16744.37902398     4323.38007350
       71.95000    21209.54676370     4865.80373586
       72.05000    29023.59030822     5691.99435908
       72.15000    32372.46611302     6011.41604248
       72.25000    37646.82123420     5171.18859560
       72.35000    36226.18647064     5072.68074351
       72.45000    58318.83014208     7863.70945216
       72.55000    91189.44349489     9833.21057893
       72.65000   156930.67020051    12899.62162906
       72.75000   332947.50299297    18789.31460034
       72.85000   556679.74226532    24295.49577885
       72.95000   934161.62463951    31472.70480117
       73.05000  1228936.80244858    36098.38995084
       73.15000  1374203.70662067    38172.32518391
       73.25000  1033833.80706416    33109.17977329
       73.35000   704067.33116985    27323.11146101
       73.45000   346731.95375383    19174.32085596
       73.55000   153749.64310185    12768.21288873
       73.65000    88008.41639623     9660.17869860
       73.75000    51956.77594476     7422.39656354
       73.85000    28629.24388793     5509.70055513
       73.95000    18025.82022573     4371.90357524
       74.05000    25448.21678927     5194.59549979
       74.15000    16965.47785951     4241.36946488
       74.25000    12724.10839464     3673.13370342
       74.35000    16965.47785951     4241.36946488
       74.45000    16965.47785951     4241.36946488
       74.55000    19086.16259195     4498.65166520
       74.65000    15905.13549329     4106.68832565
       74.75000    13784.45076086     3823.11877095
       74.85000    16741.20489219     3417.28413877
       74.95000    13253.45387299     3040.55084659
       75.05000     8370.60244610     2416.38478777
       75.15000    14962.66326530     3863.34304276
       75.25000    11970.13061224     3455.47906561
       75.35000    16957.68503401     4112.84273889
       75.45000     7980.08707483     2821.38684254
       75.55000    14962.66326530     3863.34304276
       75.65000     9975.10884354     3154.40638537
       75.75000    10972.61972789     3308.36932770
       75.85000    15960.17414966     3990.04353741
       75.95000     6982.57619047     2639.16573008
       76.05000    11970.13061224     3455.47906561
       76.15000    18952.70680272     4348.04913998
       76.25000     7980.08707483     2821.38684254
       76.35000     9975.10884354     3154.40638537
       76.45000    12967.64149660     3596.57664137
       76.55000     8977.59795918     2992.53265306
       76.65000    12967.64149660     3596.57664137
       76.75000     7980.08707483     2821.38684254
       76.85000    16957.68503401     4112.84273889
       76.95000     9975.10884354     3154.40638537
       77.05000     6982.57619047     2639.16573008
       77.15000    14962.66326530     3863.34304276
       77.25000     7980.08707483     2821.38684254
       77.35000     9975.10884354     3154.40638537
       77.45000     6982.57619047     2639.16573008
       77.55000    14018.29134254     3059.04196148
       77.65000    13350.75365956     2985.31927336
       77.75000    15353.36670850     3201.39826303
       77.85000    12683.21597658     2909.72930111
       77.95000    21297.21553423     4647.43344178
       78.05000    14198.14368949     3794.61351530
       78.15000     6084.91872407     2484.15766671
       78.25000    11155.68432746     3363.56538126
       78.35000    11155.68432746     3363.56538126
       78.45000    11155.68432746     3363.56538126
       78.55000    10141.53120678     3207.03375751
       78.65000    11155.68432746     3363.56538126
       78.75000     7099.07184474     2683.19694865
       78.85000     7099.07184474     2683.19694865
       78.95000     7099.07184474     2683.19694865
       79.05000    13183.99056881     3656.58107778
       79.15000    11155.68432746     3363.56538126
       79.25000    12169.83744813     3513.12946334
       79.35000    10141.53120678     3207.03375751
       79.45000    10141.53120678     3207.03375751
       79.55000     9127.37808610     3042.45936203
       79.65000     7099.07184474     2683.19694865
       79.75000    16226.44993084     4056.61248271
       79.85000    12169.83744813     3513.12946334
       79.95000    11155.68432746     3363.56538126
       80.05000     8113.22496542     2868.45819517
       80.15000     9127.37808610     3042.45936203
       80.25000     9127.37808610     3042.45936203
       80.35000     6658.26703400     2105.52890970
       80.45000     9987.40055100     2578.73573373
       80.55000    14830.99560647     3829.34659944
       80.65000     6921.13128302     2615.94173801
       80.75000     7909.86432345     2796.55935069
       80.85000     8898.59736388     2966.19912129
       80.95000    12853.52952561     3564.92767502
       81.05000    14830.99560647     3829.34659944
       81.15000     6921.13128302     2615.94173801
       81.25000    15819.72864691     3954.93216173
       81.35000    16808.46168734     4076.65076124
       81.45000    13842.26256604     3699.50028428
       81.55000    10876.06344475     3279.25651294
       81.65000     8898.59736388     2966.19912129
       81.75000    15819.72864691     3954.93216173
       81.85000    10876.06344475     3279.25651294
       81.95000    12853.52952561     3564.92767502
       82.05000    14830.99560647     3829.34659944
       82.15000    19774.66080863     4421.74858001
       82.25000    12853.52952561     3564.92767502
       82.35000    11864.79648518     3425.07172230
       82.45000    10876.06344475     3279.25651294
       82.55000     9887.33040432     3126.64840563
       82.65000     9887.33040432     3126.64840563
       82.75000    13842.26256604     3699.50028428
       82.85000     5932.39824259     2421.89144089
       82.95000    10876.06344475     3279.25651294
       83.05000    10766.32315386     2691.58078846
       83.15000     5383.16157693     1903.23502763
       83.25000     8076.17380402     2855.35863143
       83.35000     9085.69552952     3028.56517651
       83.45000    10095.21725502     3192.38800001
       83.55000     9085.69552952     3028.56517651
       83.65000    10095.21725502     3192.38800001
       83.75000    13123.78243153     3639.88234499
       83.85000    10095.21725502     3192.38800001
       83.95000     7066.65207852     2670.94342880
       84.05000    11104.73898053     3348.20478120
       84.15000    10095.21725502     3192.38800001
       84.25000    14133.30415703     3777.28442133
       84.35000    10095.21725502     3192.38800001
       84.45000    15142.82588254     3909.86083051
       84.55000     6057.13035301     2472.81311173
       84.65000    12114.26070603     3497.08583983
       84.75000    13123.78243153     3639.88234499
       84.85000    15142.82588254     3909.86083051
       84.95000    16152.34760804     4038.08690201
       85.05000     8076.17380402     2855.35863143
       85.15000     9085.69552952     3028.56517651
       85.25000    17161.86933354     4162.36470560
       85.35000    12114.26070603     3497.08583983
       85.45000    13123.78243153     3639.88234499
       85.55000    18171.39105904     4283.03794715
       85.65000    18726.63290557     3539.00096870
       85.75000    14713.78299724     3136.98907531
       85.85000    24745.90776808     4068.20217702
       85.95000    23408.29113197     3956.72336922
       86.05000    25527.16641591     5105.43328318
       86.15000    22463.90644600     4789.32094643
       86.25000    18379.55981945     4332.10379452
       86.35000    18379.55981945     4332.10379452
       86.45000     7147.60659645     2701.54136051
       86.55000     8168.69325309     2888.06919635
       86.65000    12253.03987964     3537.14793645
       86.75000    10210.86656636     3228.95952338
       86.85000     9189.77990973     3063.25996991
       86.95000    16337.38650618     4084.34662655
       87.05000    11231.95322300     3386.56131850
       87.15000     6126.51993982     2501.14129192
       87.25000     8168.69325309     2888.06919635
       87.35000    10210.86656636     3228.95952338
       87.45000     5105.43328318     2283.21917516
       87.55000    13274.12653627     3681.58029719
       87.65000     5105.43328318     2283.21917516
       87.75000    10210.86656636     3228.95952338
       87.85000    14295.21319291     3820.55643134
       87.95000    14295.21319291     3820.55643134
       88.05000    11231.95322300     3386.56131850
       88.15000     8168.69325309     2888.06919635
       88.25000    14295.21319291     3820.55643134
       88.35000     9455.04270759     2526.96645636
       88.45000    14182.56406138     3094.88920761
       88.55000    16884.00483498     3376.80096700
       88.65000    13507.20386798     3020.30260348
       88.75000    15905.02822290     3976.25705572
       88.85000    12922.83543110     3584.14967471
       88.95000    11928.77116717     3443.53962223
       89.05000     8946.57837538     2982.19279179
       89.15000     8946.57837538     2982.19279179
       89.25000     7952.51411145     2811.63832784
       89.35000     9940.64263931     3143.50721460
       89.45000     7952.51411145     2811.63832784
       89.55000     6958.44984752     2630.04682958
       89.65000    10934.70690324     3296.93818096
       89.75000     9940.64263931     3143.50721460
       89.85000     8946.57837538     2982.19279179
       89.95000    10934.70690324     3296.93818096
       90.05000    13916.89969503     3719.44789607
       90.15000    10934.70690324     3296.93818096
       90.25000     9940.64263931     3143.50721460
       90.35000    10934.70690324     3296.93818096
       90.45000    10934.70690324     3296.93818096
       90.55000     5964.38558359     2434.95021817
       90.65000    22863.47807041     4767.36473316
       90.75000     8946.57837538     2982.19279179
       90.85000     8946.57837538     2982.19279179
       90.95000     7952.51411145     2811.63832784
       91.05000    11768.85200776     2773.94502049
       91.15000     9807.37667313     2532.25376833
       91.25000     5884.42600388     1961.47533463
       91.35000    10733.46284918     3236.26081563
       91.45000     9757.69349925     3085.65361674
       91.55000     9757.69349925     3085.65361674
       91.65000     8781.92414933     2927.30804978
       91.75000    12685.00154903     3518.18642418
       91.85000    11709.23219910     3380.16418108
       91.95000     6830.38544948     2581.64303686
       92.05000    12685.00154903     3518.18642418
       92.15000    13660.77089895     3650.99459593
       92.25000     9757.69349925     3085.65361674
       92.35000    11709.23219910     3380.16418108
       92.45000    11709.23219910     3380.16418108
       92.55000    10733.46284918     3236.26081563
       92.65000     8781.92414933     2927.30804978
       92.75000     3903.07739970     1951.53869985
       92.85000     9757.69349925     3085.65361674
       92.95000     9757.69349925     3085.65361674
       93.05000    12685.00154903     3518.18642418
       93.15000    10733.46284918     3236.26081563
       93.25000    10733.46284918     3236.26081563
       93.35000     8781.92414933     2927.30804978
       93.45000    10733.46284918     3236.26081563
       93.55000     8781.92414933     2927.30804978
       93.65000     5854.61609955     2390.13701396
       93.75000     9729.91593324     2512.25349129
       93.85000    13621.88230653     2972.53841797
       93.95000     9081.25487102     2427.06745495
       94.05000     6728.86304587     2543.27117508
       94.15000     8651.39534469     2883.79844823
       94.25000    12496.45994232     3465.89439106
       94.35000    10573.92764350     3188.15914126
       94.45000     7690.12919528     2718.87125109
       94.55000    14418.99224114     3722.96778794
       94.65000    11535.19379291     3329.92362075
       94.75000    10573.92764350     3188.15914126
       94.85000    17302.79068937     4078.30687664
       94.95000     9612.66149409     3039.79046975
       95.05000     2883.79844823     1664.96181037
       95.15000     7690.12919528     2718.87125109
       95.25000     7690.12919528     2718.87125109
       95.35000    10573.92764350     3188.15914126
       95.45000    11535.19379291     3329.92362075
       95.55000     9612.66149409     3039.79046975
       95.65000     5767.59689646     2354.61157306
       95.75000     9612.66149409     3039.79046975
       95.85000     6728.86304587     2543.27117508
       95.95000    15380.25839055     3845.06459764
       96.05000    10573.92764350     3188.15914126
       96.15000     7690.12919528     2718.87125109
       96.25000    10573.92764350     3188.15914126
       96.35000     8651.39534469     2883.79844823
       96.45000    11113.70499477     2695.46938737
       96.55000     8498.71558423     2357.11960112
       96.65000    11113.70499477     2695.46938737
       96.75000    12920.49889572     3583.50163639
       96.85000    11926.61436528     3442.91700716
       96.95000    11926.61436528     3442.91700716
       97.05000     5963.30718264     2434.50996282
       97.15000     9938.84530440     3142.93884740
       97.25000     8944.96077396     2981.65359132
       97.35000     9938.84530440     3142.93884740
       97.45000     7951.07624352     2811.12996476
       97.55000     9938.84530440     3142.93884740
       97.65000     4969.42265220     2222.39337185
       97.75000    10932.72983484     3296.34207241
       97.85000    11926.61436528     3442.91700716
       97.95000     8944.96077396     2981.65359132
       98.05000    11926.61436528     3442.91700716
       98.15000    22859.34420011     4766.50276162
       98.25000    21865.45966967     4661.73166502
       98.35000    13914.38342616     3718.77539492
       98.45000    20871.57513923     4554.55109279
       98.55000    23853.22873055     4869.01992565
       98.65000    17889.92154791     4216.69494714
       98.75000    19877.69060879     4444.78674370
       98.85000    17889.92154791     4216.69494714
       98.95000    14908.26795660     3849.29823445
       99.05000    19877.69060879     4444.78674370
       99.15000    12562.67824645     2882.07604929
       99.25000    12562.67824645     2882.07604929
       99.35000    11240.29106261     2726.17101846
       99.45000    13057.30141473     3621.44382846
       99.55000    18079.34042040     4261.34140355
       99.65000     9039.67021020     3013.22340340
       99.75000    14061.70921586     3758.14986844
       99.85000    16070.52481813     4017.63120453
       99.95000     9039.67021020     3013.22340340
      100.05000    13057.30141473     3621.44382846
      100.15000    13057.30141473     3621.44382846
      100.25000     8035.26240906     2840.89426903
      100.35000    15066.11701700     3890.05468659
      100.45000    14061.70921586     3758.14986844
      100.55000    14061.70921586     3758.14986844
      100.65000    12052.89361360     3479.37068616
      100.75000    12052.89361360     3479.37068616
      100.85000    12052.89361360     3479.37068616
      100.95000     8035.26240906     2840.89426903
      101.05000    14061.70921586     3758.14986844
      101.15000     7030.85460793     2657.41325669
      101.25000    14061.70921586     3758.14986844
      101.35000    12052.89361360     3479.37068616
      101.45000    16070.52481813     4017.63120453
      101.55000    13057.30141473     3621.44382846
      101.65000    11048.48581246     3331.24381286
      101.75000    14061.70921586     3758.14986844
      101.85000     5869.79958966     1956.59986322
      101.95000    13043.99908812     2916.72686595
      102.05000    18913.79867778     3512.20424168
      102.15000    19158.48609950     4283.96772645
      102.25000    12453.01596468     3453.84519960
      102.35000    15326.78887960     3831.69721990
      102.45000    10537.16735473     3177.07549716
      102.55000     9579.24304975     3029.22262976
      102.65000     8621.31874478     2873.77291493
      102.75000    14368.86457463     3710.02488010
      102.85000    11495.09165970     3318.34713204
      102.95000    18200.56179453     4175.49524095
      103.05000     9579.24304975     3029.22262976
      103.15000    13410.94026965     3584.22455168
      103.25000    15326.78887960     3831.69721990
      103.35000    11495.09165970     3318.34713204
      103.45000     6705.47013483     2534.42948579
      103.55000    11495.09165970     3318.34713204
      103.65000     9579.24304975     3029.22262976
      103.75000    10537.16735473     3177.07549716
      103.85000    10537.16735473     3177.07549716
      103.95000    11495.09165970     3318.34713204
      104.05000     9579.24304975     3029.22262976
      104.15000    14368.86457463     3710.02488010
      104.25000    11495.09165970     3318.34713204
      104.35000    11495.09165970     3318.34713204
      104.45000     5747.54582985     2346.42575940
      104.55000     8506.67404185     2359.32688012
      104.65000    11124.11220857     2697.99350748
      104.75000    11778.47175025     2776.21241554
      104.85000    14677.84208783     3789.80253096
      104.95000    12720.79647612     3528.11415072
      105.05000    14677.84208783     3789.80253096
      105.15000     6849.65964099     2588.92799650
      105.25000    10763.75086441     3245.39299583
      105.35000    11742.27367026     3389.70243221
      105.45000    11742.27367026     3389.70243221
      105.55000    11742.27367026     3389.70243221
      105.65000    11742.27367026     3389.70243221
      105.75000    12720.79647612     3528.11415072
      105.85000    17613.41050539     4151.52066940
      105.95000    17613.41050539     4151.52066940
      106.05000     9785.22805855     3094.36080892
      106.15000    16634.88769954     4034.55288562
      106.25000    19570.45611711     4376.08702285
      106.35000    14677.84208783     3789.80253096
      106.45000    11742.27367026     3389.70243221
      106.55000     8806.70525270     2935.56841757
      106.65000    10763.75086441     3245.39299583
      106.75000    11742.27367026     3389.70243221
      106.85000    13699.31928197     3661.29708466
      106.95000    18591.93331125     4265.28202467
      107.05000    12720.79647612     3528.11415072
      107.15000    11742.27367026     3389.70243221
      107.25000    10032.90268323     2590.48433375
      107.35000    16721.50447205     3344.30089441
      107.45000    18059.22482982     3475.49943895
      107.55000    10444.73454358     3302.91507136
      107.65000    11489.20799794     3464.12655159
      107.75000     6266.84072615     2558.42701306
      107.85000    14622.62836102     3908.06181579
      107.95000    14622.62836102     3908.06181579
      108.05000    16711.57526973     4177.89381743
      108.15000     7311.31418051     2763.41701124
      108.25000    14622.62836102     3908.06181579
      108.35000    14622.62836102     3908.06181579
      108.45000     7311.31418051     2763.41701124
      108.55000    13578.15490666     3765.90259555
      108.65000    15667.10181537     4045.22829429
      108.75000    18800.52217845     4431.32557408
      108.85000     5222.36727179     2335.51364464
      108.95000     5222.36727179     2335.51364464
      109.05000    11489.20799794     3464.12655159
      109.15000     5222.36727179     2335.51364464
      109.25000    13578.15490666     3765.90259555
      109.35000     9400.26108922     3133.42036307
      109.45000    15667.10181537     4045.22829429
      109.55000    13578.15490666     3765.90259555
      109.65000    11489.20799794     3464.12655159
      109.75000    10444.73454358     3302.91507136
      109.85000    15667.10181537     4045.22829429
      109.95000    12925.06152350     2965.21247474
      110.05000    13605.32791947     3042.24380841
      110.15000    14285.59431545     3117.37225228
      110.25000    13188.27148902     3657.76839141
      110.35000    11159.30664455     3364.65755095
      110.45000    14202.75391125     3795.84564890
      110.55000    10144.82422232     3208.07510046
      110.65000    14202.75391125     3795.84564890
      110.75000    12173.78906678     3514.27019738
      110.85000    12173.78906678     3514.27019738
      110.95000    15217.23633348     3929.07352632
      111.05000    13188.27148902     3657.76839141
      111.15000    11159.30664455     3364.65755095
      111.25000    13188.27148902     3657.76839141
      111.35000    13188.27148902     3657.76839141
      111.45000    21304.13086687     4648.94249108
      111.55000    14202.75391125     3795.84564890
      111.65000    13188.27148902     3657.76839141
      111.75000    15217.23633348     3929.07352632
      111.85000    20289.64844464     4536.90331618
      111.95000     7101.37695562     2684.06819867
      112.05000    15217.23633348     3929.07352632
      112.15000    22318.61328910     4758.34434130
      112.25000    14202.75391125     3795.84564890
      112.35000    16231.71875571     4057.92968893
      112.45000    11159.30664455     3364.65755095
      112.55000    23333.09571133     4865.28678039
      112.65000    14528.59758071     3097.50741185
      112.75000    17170.16077720     3367.34557133
      112.85000    24434.45956755     4017.00040826
      112.95000    22091.53637922     4606.40376373
      113.05000    27854.54586945     5172.45931500
      113.15000    27854.54586945     5172.45931500
      113.25000    38420.06326821     6074.74538877
      113.35000    55709.09173891     7314.96211409
      113.45000    74919.12337302     8482.92028135
      113.55000    83563.63760836     8958.96233366
      113.65000   121983.70087658    10824.30310155
      113.75000   120062.69771317    10738.73414595
      113.85000   194981.82108618    13685.04101408
      113.95000   211310.34797517    14246.54075419
      114.05000   277584.95711284    16328.52688899
      114.15000   331373.04568834    17840.52506285
      114.25000   430304.70860399    20329.98655261
      114.35000   524433.86361111    22443.69745604
      114.45000   708850.16729854    26093.13524440
      114.55000   805860.82705078    27821.40541052
      114.65000   843320.38873728    28460.68458886
      114.75000   917279.01052859    29682.45172619
      114.85000   912476.50262007    29604.64700069
      114.95000   907673.99471154    29526.63725508
      115.05000   844280.89031899    28476.88765569
      115.15000   781848.28750814    27403.76829571
      115.25000   600313.48856583    24012.53954263
      115.35000   443760.59162265    16784.56707681
      115.45000   358690.60696252    15090.22724971
      115.55000   269811.51851163    13087.78105684
      115.65000   183515.32791779    13141.80559362
      115.75000   124225.76043666    10812.46459306
      115.85000    86581.59060737     9026.75481681
      115.95000    60230.67172687     7528.83396586
      116.05000    32938.64860063     5567.64780197
      116.15000    45173.00379515     6520.16147531
      116.25000    37644.16982929     5952.06586434
      116.35000    42349.69105795     6313.11920211
      116.45000    20704.29340611     4414.17018582
      116.55000    21645.39765184     4513.37740841
      116.65000    32938.64860063     5567.64780197
      116.75000    30115.33586343     5323.68955169
      116.85000    23527.60614331     4705.52122866
      116.95000    34820.85709209     5724.51364304
      117.05000    24468.71038904     4798.70891331
      117.15000    27292.02312624     5068.00146396
      117.25000    20704.29340611     4414.17018582
      117.35000    21645.39765184     4513.37740841
      117.45000    28233.12737197     5154.64024351
      117.55000    16939.87642318     3992.76716376
      117.65000    15998.77217745     3880.27220987
      117.75000    15998.77217745     3880.27220987
      117.85000     9411.04245732     2976.03293217
      117.95000    13175.45944025     3521.28965277
      118.05000    12486.83554570     2864.67654044
      118.15000    15115.64302901     3151.82944929
      118.25000    15115.64302901     3151.82944929
      118.35000    10069.76418499     3184.33903253
      118.45000    18125.57553298     4272.23912409
      118.55000    15104.64627748     3900.00289887
      118.65000    16111.62269598     4027.90567399
      118.75000     9062.78776649     3020.92925550
      118.85000    14097.66985898     3767.76075458
      118.95000     9062.78776649     3020.92925550
      119.05000    11076.74060349     3339.76295290
      119.15000    11076.74060349     3339.76295290
      119.25000    10069.76418499     3184.33903253
      119.35000    15104.64627748     3900.00289887
      119.45000     8055.81134799     2848.15941606
      119.55000    19132.55195147     4389.30844676
      119.65000    10069.76418499     3184.33903253
      119.75000     9062.78776649     3020.92925550
      119.85000    12083.71702198     3488.26863773
      119.95000    12083.71702198     3488.26863773
      120.05000    12083.71702198     3488.26863773
      120.15000    19132.55195147     4389.30844676
      120.25000    13090.69344048     3630.70511008
      120.35000    18125.57553298     4272.23912409
      120.45000    15104.64627748     3900.00289887
      120.55000    14097.66985898     3767.76075458
      120.65000    12083.71702198     3488.26863773
      120.75000     6041.85851099     2466.57840834
      120.85000     8055.81134799     2848.15941606
      120.95000    24167.43404397     4933.15681667
      121.05000     8714.19932494     4357.09966247
      121.15000    17428.39864987     6161.86943527
      121.25000    13071.29898741     5336.33546575
      121.35000    10892.74915617     4871.38551501
      121.45000    17428.39864987     6161.86943527
      121.55000    15249.84881864     5763.90107221
      121.65000    17428.39864987     6161.86943527
      121.75000    17428.39864987     6161.86943527
      121.85000    10892.74915617     4871.38551501
      121.95000    23964.04814358     7225.43237730
      122.05000    17428.39864987     6161.86943527
      122.15000     8714.19932494     4357.09966247
      122.25000    17428.39864987     6161.86943527
      122.35000    13071.29898741     5336.33546575
      122.45000    10892.74915617     4871.38551501
      122.55000    19606.94848111     6535.64949370
      122.65000    23964.04814358     7225.43237730
      122.75000     6535.64949370     3773.35899452
      122.85000    19606.94848111     6535.64949370
      122.95000    21785.49831234     6889.17946288
      123.05000    19606.94848111     6535.64949370
      123.15000    19606.94848111     6535.64949370
      123.25000    21785.49831234     6889.17946288
      123.35000    26142.59797481     7546.71798904
      123.45000    19606.94848111     6535.64949370
      123.55000    26142.59797481     7546.71798904
      123.65000    21785.49831234     6889.17946288
